Tiempo (s)	Vel. media (m/s)	Error.tiempo (s)	Vel. Modelo II (m/s)
1	10	0.1	0.5
2	16.3	0.1	0.8
3	23	0.1	1.2
4	27.5	0.1	1.4
5	31	0.1	1.5
6	35.6	0.1	1.7
7	39	0.1	1.9
8	41.5	0.1	2.1
9	42.9	0.1	2.1
10	45	0.1	2.2
11	46	0.1	2.3
12	45.5	0.1	2.3
13	46	0.1	2.3
14	49	0.1	2.5
15	50	0.1	2.5

